startTime(s),fixDur,fixVel,fixDriftDisplacement,fixDriftDist,fixDriftVel,fixBCEA,sacFreq,sacAmp,sacEfficiency,sacPeakVel,sacPeakAcc,sacSkewnessExponent,sacPeakVelAmpRatio
0.0,0.17657142857142857,117.57262539217692,9.285640475442722,19.70397825904051,58.98409106235055,17.243618312745745,4.4,214.92394907038621,0.9939349267785303,6454.430077993107,333537.8459386324,0.4698495857689885,33.017775835150985
0.4,0.1856,115.00621191445396,9.67254328354392,19.881903497219096,60.36357013528001,17.49452490113726,4.0,224.8697241923359,0.9934065198864792,6700.730615753152,329754.3849220912,0.49391787767922074,30.469696078149973
0.8,0.19050000000000003,108.67920335677779,9.656975466064136,19.245697194743922,59.366051486445485,17.03022042644327,4.2,206.14681367728767,0.9917170865281391,6146.814514467778,304464.6648794023,0.4985527813330078,30.666938214600368
1.2,0.1982105263157895,107.018990563653,9.675019122815755,19.41495160548616,58.52490324181561,17.369851778618422,4.0,208.96595286242194,0.9915077148349365,6215.97031842823,303766.97920337645,0.4971708965901344,30.620228708148282
1.6,0.20644444444444446,102.0231431772108,9.168142758366558,19.335623833149555,52.58483051465812,17.45681085395491,3.8,199.88865535812945,0.9909297293633209,5922.966273712134,288695.77623284666,0.4937325227264572,30.791412363300065
2.0,0.2111111111111111,98.26193105192324,9.082772825656647,18.92115987191795,50.80576798666216,16.102090147627216,3.8,190.70296416307426,0.9931891237211574,5635.539748433383,276840.6197013801,0.4863045961849572,30.86740022842864
2.4,0.2141111111111111,94.50540221693416,9.03078501645085,18.64716467674764,50.58020333353852,14.597597921306551,3.6,174.60859240485576,0.9914026355056252,5154.520338397192,259999.67408568723,0.4724383273120417,30.82169367710056
2.8,0.21622222222222223,96.33646092355782,8.715718130224595,19.28734790280124,47.58261800005475,16.025200213962936,3.6,160.19737953152412,0.9882300302532028,4739.706824267131,237747.3002366613,0.47932441508048246,30.945862468422167
3.2,0.22376470588235295,93.25842549266221,7.667332862025226,19.453428872013106,41.585559535174056,14.428704631307646,3.6,138.94719261288753,0.9871393720507062,4132.260904481092,213721.33981710102,0.48000054760245675,31.243163776142417
3.6,0.231375,89.5631657626144,6.927946591435248,19.450371169919293,36.047137904661916,13.197842152988986,3.4,135.56243143766338,0.9865930390866576,4026.7456647313907,206917.1911704831,0.48092494956226517,31.297613157928595
4.0,0.22494117647058823,87.12597145819586,6.283901972956123,18.304064218003845,33.61811203870824,11.626526074508757,3.6,112.77110454006318,0.9888219367381588,3488.6770652924474,190867.22645979907,0.48066192326383245,31.84259800442176
4.4,0.2183529411764706,85.33056415728676,6.272538201909972,17.373224417411354,34.20634857636428,10.980606666081414,3.6,95.73307561461407,0.9887120540846046,2989.040991689125,168756.26968802267,0.48066192326383245,32.031043428318334
4.8,0.235875,80.77008886467752,5.838972594998836,17.707282046193622,29.518518325431046,10.733613651540614,3.4,91.20709715152842,0.988227101301256,2853.3398667246015,160447.30357129994,0.4781238291140859,32.142797437345635
5.2,0.24117647058823533,79.8750196844138,5.490676042920474,17.881109515372874,27.690387015975475,10.714256813187175,3.4,84.79081072079885,0.9881632148346616,2660.892424732975,148389.55349944273,0.48932093953720246,32.759349829660096
5.6,0.242875,81.16815490323887,5.370839265334354,18.22383365996974,27.17790342096798,10.836386788559597,3.4,80.5893677510969,0.9926824372148317,2528.4578545717036,140384.8211926163,0.4876402672682949,32.982836952771656
6.0,0.243375,81.61337705857744,5.244072972075125,18.37850311989093,26.707316046783404,10.779516681153115,3.4,83.29150101777724,0.9926643388267328,2613.074302766757,144601.383049924,0.4860922796521959,32.9377255663735
6.4,0.24152941176470588,83.50901954819395,5.629761284877406,18.36954150325957,30.044388857974646,10.71805864269345,3.6,88.62938317207698,0.9907207769160055,2780.49710189552,153015.4383859749,0.4767223869229803,32.879657602881124
6.8,0.239625,84.9536333468472,5.319561821612169,18.445813360909458,29.451727206084904,11.23775013360725,3.4,93.57639695978375,0.9846118721468063,2934.5821884087813,160781.842522861,0.47379024345310083,32.77488379311607
7.2,0.2309411764705882,84.7719476008217,5.284220943853699,17.386773140718436,31.831747143872523,10.164023839490989,3.6,89.88171779322255,0.985022836016411,2855.4569286502137,163580.042476544,0.47456771209954113,32.86971869436578
7.6,0.24211764705882352,75.93246568987118,4.733536527508453,17.03554913527081,25.24013692041274,7.835864839815133,3.6,78.50405730409048,0.9893615955977056,2521.197433733768,147374.9021598163,0.480383250190621,33.19399837022317
8.0,0.23776470588235293,73.58310420195745,4.897489040559164,16.004367071469307,26.184257350174256,7.2537821856809295,3.4,81.1164295980029,0.9897991075037905,2606.562054224279,150115.5582571504,0.4745580434544292,33.20328537714647
8.4,0.22647058823529412,72.32391439623015,4.762981545991503,14.903853807433507,26.715766260357384,6.922219596142545,3.4,74.80956754916836,0.9501951662760961,2454.2722985206196,154848.29028138044,0.4676861358128679,33.64988345748456
8.8,0.22517647058823528,73.47463067788786,4.839851095628817,14.942475444628329,27.46454823590841,6.932024874998363,3.6,79.64035214189231,0.9529352188254008,2600.509076559694,162885.5131529921,0.46801936218583723,33.48116529962047
9.2,0.2231764705882353,76.17991744536921,5.248987324818578,15.486582780021893,29.32263448974456,7.113422602890681,3.4,79.26558952566018,0.9502174132945401,2589.4098055765885,161638.85787504964,0.4692586946609686,33.52080146664508
9.6,0.2127058823529412,76.48375428906529,5.310586587933135,14.939289710833563,30.243712245489828,6.811588937934711,3.6,82.56466609380027,0.9529652877066523,2679.830443890824,163567.6241528357,0.47191621257391575,33.391441747100004
10.0,0.2131111111111111,77.37922224747386,5.1491622024020165,15.141480187991274,29.709572016800866,7.442347504380417,3.6,83.92657481294331,0.9528175493320088,2716.231028928406,165209.90398808738,0.47034616426473697,33.31950648774286
10.4,0.2118823529411765,78.0643575218122,4.861531452007861,15.135108079083492,28.911837673189083,7.2466764199809885,3.69244135534318,90.2449575140842,0.9502337683122081,2908.5733020006105,178906.5848530479,0.46173907588815283,32.52504408395166
10.8,0.196125,80.56379031504142,4.9146278892156285,14.695825756386144,30.58280842567701,7.401016064653323,3.577817531305903,90.08770457002711,0.9471677451379004,2904.277089712339,178744.77145937848,0.4593477681311624,32.551821848622765
11.2,0.19564705882352942,80.72656205645544,4.956156143227919,14.743103608654536,30.561368147450775,7.490759943872488,3.7105751391465676,94.04272591032179,0.9471473318854468,3027.1204434488627,183817.69943285314,0.4581515958823586,32.48644161483912
11.6,0.20946666666666663,81.31231634632171,5.182826789068288,16.099531908619404,28.401643935588993,8.915225297330984,3.478664192949907,94.36160756901513,0.9531414813168969,3043.317053332012,183514.80085335317,0.47202140127117137,32.48071631565153
12.0,0.21137499999999998,79.63832197134091,5.612644442573972,16.237160649077254,29.011707731145968,9.16985836130715,3.478664192949907,95.5030299146659,0.95139943321336,3072.696710771885,177946.23060721613,0.4675488207116343,32.44989794592143
12.4,0.205,78.04958432331341,5.588036223791313,15.371966481211645,29.61339538225203,8.233486520990315,3.478664192949907,93.83338909235495,0.9514147669932039,3017.9040345131643,176053.8079876696,0.46912776808005535,32.4568104008011
12.8,0.209125,78.10026749900007,5.887493716359656,15.678643841044337,30.21093769421304,8.741927090645607,3.7105751391465676,101.25087578149333,0.9546700882094687,3246.460928468403,187892.1050530867,0.47121392417906194,32.351417040973985
13.2,0.2105,79.33279084460557,6.11673774687614,16.027273807029374,31.098324544087223,9.140615134295938,3.478664192949907,111.82335843410384,0.993348731519534,3533.061442347008,191611.88390568428,0.47257321052986695,31.839166998855273
13.6,0.2384,75.90860099853224,6.945866094367264,17.12576665896279,31.47753231399047,10.050059595431367,3.2467532467532467,130.4350696567066,0.992889762616078,4043.4344981910845,207081.5370622659,0.4737253804808595,31.58990122617198
14.0,0.2334285714285714,79.32149394243818,6.883316701468177,17.479957491772595,31.318345804356532,10.619962775441197,3.2467532467532467,132.9525825278004,0.9930249109474059,4121.196437687163,212550.75859515785,0.47917650830040837,31.53792783844626
14.4,0.2326666666666667,83.63064134785063,7.701697511267293,18.33204356501689,35.36906853097014,12.43287477498157,3.478664192949907,143.10728840215853,0.9933323891025225,4404.932819563902,225050.79626652534,0.48053014299480856,31.416931075849128
14.8,0.22226666666666667,84.20553316826705,8.172456342335012,17.726154538967318,38.44171708612217,11.941447777926916,3.2467532467532467,146.5783661734361,0.9929640409421804,4510.4079127592395,231527.09284270575,0.47549808917181957,31.426120206352696
15.2,0.226875,83.85930662014161,7.899543058044248,18.06932414459926,36.48116248564659,11.299441540473513,3.3274179236912156,147.87513242288227,0.9933811601122261,4560.104529031782,236097.22574237076,0.4787104972621193,31.49640913206681
15.6,0.22299999999999998,83.43723456378042,7.666128759726355,17.68870074523978,35.68391334312249,11.078744362599,3.3057851239669422,148.9890871432171,0.993755940663134,4598.544101048088,236654.65799087854,0.4787910911832368,31.47990534238901
16.0,0.237125,82.12628740522477,7.529155037163271,18.32563961852185,34.31544842864022,11.21035484356796,3.3057851239669422,144.19991473736383,0.9937764760458163,4449.397620691523,232381.56500534012,0.47468755582970146,31.57506728378867
16.4,0.22776470588235292,84.27726408137826,7.645452589226551,17.58995022406352,36.96999772730482,11.1002011223227,3.4,139.62537007837477,0.9827539463429263,4229.205053562952,222855.35321835225,0.4735027263423928,30.34295242825699
16.8,0.23546666666666666,83.32262931940983,7.320206420251345,17.876645934337382,33.83835823717468,11.44981154774,3.2,139.81988830076722,0.9670123896963442,4219.225277466163,222477.21979425044,0.5025228386202272,30.228635573439092
17.2,0.22962500000000002,94.61919427330452,9.3631341269421,18.794141146488613,50.236707996666524,11.887846006591893,3.4,153.59213368178206,0.9693097838837275,4653.755156369558,248859.6130243435,0.502122335508113,30.286387911759046
17.6,0.2325,97.33762994386336,9.608015292486265,19.72497446944439,51.262087101307515,12.30096244517353,3.2232070910556,156.0900216882629,0.9673448737348407,4723.98558398734,250270.7142179684,0.5070325503996759,30.250652937904704
18.0,0.23293333333333333,98.9947931438676,9.70560745610243,19.95760205037994,52.25571051572688,12.560661103435258,3.067484662576687,153.83287816852769,0.9663525064538324,4621.683410219579,244703.8699517792,0.5164405618013103,30.048895237900698
18.4,0.20625,106.42150608140682,9.383543904423306,19.458147393399315,55.456051324227246,13.285177007032974,3.5242290748898677,159.51152159347106,0.9700986238417475,4796.636741819766,247324.65447879228,0.515463077783043,30.158888258128886
18.8,0.20700000000000002,103.89418860087062,9.667805443262544,19.02340311652349,56.712441627469026,12.828123899982263,3.303964757709251,150.1452920867141,0.9676403456438352,4559.983143122974,239191.33188666878,0.5080111910145563,30.3077624829647
19.2,0.202625,103.14657935382053,9.263163637134888,18.458508036509908,55.898437331257824,12.099820033231078,3.5242290748898677,153.8661309742345,0.9656527762644038,4705.97315645134,245617.7910913694,0.5152431703756355,30.46179379096231
19.6,0.19573333333333334,111.19849934831798,9.697266162841258,18.870358729095653,61.960511230287146,13.681322359141888,3.303964757709251,169.93636916494017,0.9635530744377032,5153.5310214203655,259920.30143719233,0.5148048458440616,30.16111199614618
20.0,0.20224999999999999,112.0541966179454,10.380334475230606,19.551094457846293,64.4012812530728,15.501994414413053,3.5242290748898677,183.56048655398698,0.9657824689243746,5556.528166770176,273219.326080759,0.5115647281639928,30.11385486349262
20.4,0.187375,115.97975095507402,11.289451358634993,19.286695786622097,70.4122074934274,17.147874773407814,3.5242290748898677,186.18380923271235,0.9657444991124724,5639.110153358739,275135.228938831,0.5132094650060981,30.077347193667315
20.8,0.17741176470588235,114.51255826354671,10.1875843116195,18.421705169811624,66.4199783026444,15.05587863171628,3.7444933920704844,182.27074068972345,0.9674363637942234,5531.4386784862245,267590.48787098937,0.5219772615499616,30.23657688188041
21.2,0.17726315789473684,109.34818085551181,9.711925775520726,17.729443880421833,62.64895377437193,14.42473953293991,3.7444933920704844,184.85360464073554,0.9785090828853451,5689.841227253528,273791.2231857325,0.5234745877531701,31.423347176881
21.6,0.18000000000000002,106.77164594216771,9.370822722700943,17.634491877694902,60.684134493258334,14.618974173251875,3.9647577092511015,172.38846633011653,0.9944239256973704,5305.14252745615,258980.26902016686,0.5005559502383883,31.56101887994135
22.0,0.18715789473684213,96.92194717428639,8.24999607025109,17.20142037401821,47.92819727575236,14.529196846008544,3.9647577092511015,162.29720351317988,0.9943991266122231,5002.6964550757775,245872.63364908937,0.5029898126722508,31.625945934766534
22.4,0.185,96.19736378006331,8.319219045528005,16.784588961010886,48.88550311000172,14.836323859931424,3.9647577092511015,166.7160990663812,0.9944198567062763,5120.670407561431,245159.1986168994,0.5026389354792684,31.476491502402162
22.8,0.185,96.19736378006331,8.319219045528005,16.784588961010886,48.88550311000172,14.836323859931424,3.7688442211055277,166.7160990663812,0.9944198567062763,5120.670407561431,245159.1986168994,0.5026389354792684,31.476491502402162
23.2,0.21052631578947367,90.47061018655418,8.65140290222296,17.504202986551064,46.88010013334195,14.46078933194157,3.6,165.60143940860627,0.9944352609118943,5094.546620703708,247057.82039632057,0.4996969540890111,31.501084188760185
23.6,0.20884210526315788,88.52361068018004,8.180184595738899,17.11008384016349,44.33438546578945,13.67750703198575,3.8,168.79355405363032,0.9949180799516743,5185.433249511491,252323.2008031215,0.49971290387379996,31.395234727810877
24.0,0.221,85.98332566241767,8.069801921666475,17.403819619318387,42.12846237178151,13.095166641355753,3.6,157.0174717404509,0.9950790860306145,4829.91628211861,238198.63005850645,0.5068368717844844,31.447947815018836
24.4,0.20911111111111114,84.64604572728302,7.431019872681066,16.33595685213411,39.22734542293952,10.737120900524797,3.8,152.73227860613636,0.9983017301598454,4697.680413145812,236617.2513015642,0.49551649777797663,31.481060550822647
24.8,0.21155555555555558,81.13195361457193,7.007967391308888,16.025145140573727,35.92957522367492,10.060376197693666,3.8,141.29330795641397,0.9982108971730613,4358.6260089562065,221430.74387785146,0.49523802381529214,31.584786723194316
25.2,0.21977777777777774,77.54936153500924,6.510386044108738,15.979582253721642,31.92426641472934,8.848091729805239,3.631961259079903,133.97443403611535,0.998196237257274,4143.185058477147,214951.85666348683,0.4996386398035341,31.671420247844758
25.6,0.226375,77.30679666707306,6.826351968869606,16.357296721135548,32.68897975932357,9.515268571562004,3.3726812816188874,142.67449390188781,0.9983319501223806,4395.837729962648,227537.19852392847,0.49775523448485826,31.44123992374874
26.0,0.2308235294117647,76.64474986810546,6.858932292732254,16.493050490344284,32.32565645278176,9.130648127149705,3.161888701517707,144.76414387944297,0.9983405608259791,4460.285781741769,231055.69315459032,0.49748964142153,31.48435667266495
26.4,0.22858823529411765,78.84886623087944,7.083038813774875,16.70344542083523,34.32102459401052,9.336821049710261,3.3726812816188874,145.6845220968375,0.9983068168709134,4501.353364649654,234033.42789430087,0.49878449401475716,31.43550558403765
26.8,0.23600000000000002,77.38852766126186,7.251360097720032,16.805930526092038,34.34292486244402,8.744881814500669,3.161888701517707,148.5649556333795,0.9978780770335867,4586.26817910074,234527.76363843994,0.495537211326685,31.445486011257685
27.2,0.233375,76.80404497458612,6.901473313224523,16.459337051866992,33.141269747706914,8.082432793161571,3.3726812816188874,146.5051570525096,0.976801420381006,4581.495061668134,235507.02690425032,0.5170851987995951,31.659199407412828
27.6,0.22037500000000002,77.27343583289007,6.762965924341309,15.911724157921178,33.37472330264289,8.457509663504254,3.3726812816188874,144.37910585983303,0.976820106545917,4512.602587322646,235140.99825184338,0.5126209130853094,31.65177322055436
28.0,0.227875,77.17230544097396,6.596665788152366,16.41216788967877,32.014041387782136,8.061424626569176,3.3726812816188874,137.13264707966414,0.9767165317035021,4307.717939267588,224692.21108181434,0.5124492097886061,31.72108446655617
28.4,0.2377333333333333,75.1306618762197,6.411275018808512,16.71146396312469,29.675545406511258,7.670960741239558,3.161888701517707,132.18274505368177,0.9752592615496067,4162.116861349899,218223.30510742235,0.5132791571078464,31.790371122323894
28.8,0.22525,73.57421247330646,6.040884127106548,15.621950830310158,29.386179057622115,7.144788465360982,3.3726812816188874,124.48761619122602,0.9770054476700571,3923.655854939784,207330.15426554088,0.5109689466307114,31.896238446664434
29.2,0.239625,71.06210341379354,6.03032838334344,16.23285567576477,26.93496330023259,7.605025101728529,3.161888701517707,115.8358095983435,0.9753163256802465,3682.162938766009,196190.0207694113,0.517284823447609,31.939867179930438
29.6,0.2513333333333333,65.97251087427094,6.208845704734831,16.188798772807875,26.543811658549654,7.508746155044424,2.9510961214165263,106.09934729184123,0.9737305413130937,3399.120016723209,183221.66320372443,0.527431672427514,32.33703670509289
30.0,0.25099999999999995,64.24818818006072,5.933183023907628,15.719547793725214,25.5682249516619,6.740012681502568,2.9510961214165263,95.63505373068854,0.9736048734348832,3078.6550668853893,166417.731414491,0.5144446594405009,33.41774995006164
30.4,0.25099999999999995,64.24818818006072,5.933183023907628,15.719547793725214,25.5682249516619,6.740012681502568,2.8067361668003206,95.63505373068854,0.9736048734348832,3078.6550668853893,166417.731414491,0.5144446594405009,33.41774995006164
30.8,0.2505,62.728878272881055,5.591264762940668,15.412552925457634,24.111575209659822,6.316175150231092,2.6,92.8463439436624,0.9718872282246009,2992.9471262293987,162909.64400612662,0.5155557870897702,33.54288054455235
31.2,0.3288333333333333,61.123243539897196,6.080996438981454,18.89782303489529,21.91397996307916,7.757828183897942,2.479338842975207,92.1367376105835,0.9696162799943666,2967.171081345683,161298.18510117062,0.5148679756964575,33.623214556084385
31.6,0.3333333333333333,59.1898934248955,6.1169111661919,18.844183830541805,20.80534063396289,7.818623097959148,2.479338842975207,89.27038981998082,0.9701421957316595,2879.2978093198567,156768.50427579277,0.5258224452035586,33.7036740934365
32.0,0.31753846153846155,62.12164986922585,6.115726094114047,18.370388503276,22.661712674085155,7.357955000785996,2.479338842975207,85.35864443095033,0.998428003278497,2713.999771614039,153782.64682340564,0.49579702762912153,33.51691479289067
32.4,0.30446153846153845,66.42952871678042,6.402541066751843,18.208740829990248,26.375666111167696,7.789872500263758,2.6859504132231407,91.09909618529079,0.9985437002920358,2893.1727559335527,162972.43484064026,0.4944480923934366,33.363556643750286
32.8,0.2897142857142857,65.39414336457375,6.020957338206076,17.0762386426674,25.891786313147662,7.800516825385071,2.8925619834710745,88.7052826786355,0.9987018563796888,2819.5288329969035,161060.28188511124,0.503518126610232,33.297385932717404
