startTime(s),fixDur,fixVel,fixDriftDisplacement,fixDriftDist,fixDriftVel,fixBCEA,sacFreq,sacAmp,sacEfficiency,sacPeakVel,sacPeakAcc,sacSkewnessExponent,sacPeakVelAmpRatio
0.0,0.17873684210526317,5.773349693299777,0.5461040450411471,0.9477869878373341,3.4392440943391285,0.0350606000155406,4.0,5.3226029700575115,0.868389482044108,250.14230900304614,23727.754062350843,0.3557577048429389,51.63041545642004
0.55,0.17926315789473685,5.648996370615017,0.562068709233875,0.9298447354734463,3.488487599120029,0.034352442937662986,4.0,5.650460632666596,0.8687124928128961,267.14711382154144,24136.351191677644,0.3882863873947836,53.442392336115674
1.1,0.1723684210526316,5.562230352239773,0.49003707682760916,0.87064608643217,3.3168539037634397,0.02838622649750831,4.0,6.041292388586363,0.8696831179465511,264.78938188039325,23669.726423816257,0.3908796910090104,52.98490814368207
1.65,0.17542105263157895,5.565674349092808,0.471402406538005,0.8825027401158788,3.228591450316633,0.029072127472793502,4.0,6.268503239811109,0.8791654007100469,268.8905579658581,23854.972325892846,0.39002583472037144,51.86580226139635
2.2,0.1781578947368421,5.569637857928797,0.4878425894171919,0.8940232151222288,3.263848059315163,0.02986780602488338,3.8,6.1874334399173065,0.8765010405034712,264.6099002560521,23643.155424027856,0.3975628603883245,52.27250077923464
2.75,0.2013888888888889,4.860923314832846,0.4725804660877406,0.918625882009241,2.4561616942578968,0.0393583921903662,3.8,5.9765372463456785,0.8834933261784591,261.0189134338311,23497.797407034264,0.4018096859609048,55.609791972285144
3.3,0.2273333333333333,4.681052959386849,0.5248124908248025,1.0334720656029142,2.448884946593802,0.06394271953163265,3.4,5.4658440283491885,0.8961765253650544,251.46502723575497,23084.96180183189,0.3841375340712493,59.459889583005435
3.85,0.2451764705882353,4.716281230939434,0.5633683549288743,1.119812185205215,2.4148365221032133,0.07357254332550613,3.4,5.2080102225128435,0.9237827132910094,233.71707749169232,21701.42612933083,0.3927522251358919,58.36457899435185
4.4,0.26280000000000003,4.477477536372121,0.7354199267083765,1.2163486942587043,2.6785936603765,0.0912353166672208,3.2,5.1827122403121955,0.911057882476762,232.90682620190893,21670.170660661042,0.37206751015162665,58.62613670335859
4.95,0.2784666666666667,4.200454221452803,0.7212010274436106,1.2223358384143987,2.377709518037621,0.09959155093808574,3.0,5.7329888011249475,0.9130195011381065,251.2315652893379,22926.434748516836,0.36103517609450825,55.754648023927636
5.5,0.2954615384615385,4.188276948160086,0.7728734256005558,1.2974977379512713,2.4020757526923693,0.1120265612584481,2.8,5.510659225651701,0.9166689631687063,229.1622786361193,20932.5121775331,0.38078027532552133,55.70934051222365
6.05,0.30621428571428577,4.138250626514783,0.7202836474106762,1.3138706522083863,2.2123402825819123,0.10732168528560233,2.8,4.382218828730104,0.9195341499637072,211.55922746372477,19981.914142246416,0.40373617698443054,59.696727664551666
6.6,0.2895333333333333,4.368632482953907,0.7383169388058655,1.282683925379511,2.434466453854682,0.1005714703814644,2.8,4.377572315020578,0.9020994191091559,205.60809143843179,19141.740168043034,0.41027130851956206,58.45236210441003
7.15,0.26846666666666674,4.548853080714768,0.6764774601072183,1.2384870934939047,2.3471816740400473,0.09510979072456616,3.2,5.293542180510115,0.8834435418293085,280.01306805512456,23397.10687427981,0.407254716116323,57.93294276732896
7.7,0.22437500000000002,5.117929675981118,0.587727634558979,1.0714415058267794,2.5357579462506266,0.059115274694655516,3.2,6.759295633141845,0.8942142165060797,305.9964613024642,25113.126175455815,0.3993998478939789,54.4325376688875
8.25,0.21583333333333332,4.832090434295542,0.5330530299670873,0.9933596750413398,2.3436711604090172,0.05111361633486276,3.8,6.799867128751979,0.8963663756076042,299.32806486914984,24521.99010069578,0.39724415925536594,55.025106946101424
8.8,0.20176470588235298,4.595233187196069,0.37063050515710105,0.8261791188210514,2.0438961599846657,0.0321072817200114,3.6,6.945825605703821,0.8905490808858362,304.29386713009796,24718.702399735306,0.39922471238630014,55.55406887876475
9.35,0.20994444444444443,4.52566447724866,0.366638964271643,0.8352543964340664,1.9946562809892592,0.03084251510708783,3.8,6.271331426156166,0.9031975393680197,277.84195493427995,22616.906852650358,0.42013587471001046,57.80882411928463
9.9,0.19957894736842108,4.550422809270728,0.3344635388080702,0.7967036578585529,2.0335261927282278,0.02266209861571571,3.6,5.963123234304384,0.9025040696140629,273.80836907870935,22442.675863545843,0.4193487671995733,59.11871783265589
10.45,0.18576470588235294,4.715390733126707,0.3490152834108008,0.7692710311042337,2.1819234248051838,0.021185322602248174,3.6,5.90334694380281,0.8491597573779517,284.1277314246218,23298.926517285905,0.3926875290126856,85.0215665559188
11.0,0.204,4.703358282099155,0.38205899837012836,0.8530151312327194,2.2359564838472386,0.04114940733369695,3.4,6.568234937821254,0.832227740681672,306.2324854036803,24590.051088959386,0.3713709429598084,84.12478357321491
11.55,0.21668749999999998,4.500299471074479,0.36765846305342853,0.8475961341512196,2.094789771048522,0.04246123025858371,3.2,5.4847229350767694,0.8724577095006142,236.60700962340005,20715.719804822555,0.37623397076304943,87.69873157357846
12.1,0.23166666666666663,4.325009767910249,0.3940100751705337,0.8591176007750371,2.1227600142669316,0.044398010868034035,3.0,5.324272485989866,0.8472158064516241,227.79985693604203,20054.275843349453,0.3703920061067442,91.37383650389599
12.65,0.2712857142857143,3.2941496042362437,0.3778199614578023,0.8374856738523329,1.6798892342961445,0.039006470346115145,2.6,3.378000248332344,0.8218727551437209,192.84521457539657,18080.605550249635,0.3725603613311338,99.01393100469485
13.2,0.3057272727272728,3.2376709110764805,0.4139462767720335,0.9304534306213323,1.6350339107948828,0.04679122979735692,2.4,3.6319695920272417,0.771527240304005,205.13892536406374,19118.918162280002,0.3651811222830277,100.4994159225724
13.75,0.32870000000000005,3.415938467021875,0.44280604869164364,1.0878108657217127,1.6723263668843553,0.07249762185743054,2.2,4.311218282630066,0.7513407564950029,234.66258111676106,21168.489445772957,0.3418548302243729,101.4766803603029
14.3,0.31849999999999995,4.406965410937977,0.5838082372838249,1.3386436568961082,2.186467065894285,0.12229032774507702,2.2,5.590977205798787,0.7495477073276622,278.02772272107654,24663.895424899492,0.364059897883986,96.35039868997902
14.85,0.315,4.783510196055499,0.6323331273286882,1.4250526018305465,2.269336607215264,0.13474242768939104,2.2,5.416586839545044,0.8304730596022515,262.8259910998723,23693.997943605315,0.40470089730158576,56.092520077452384
15.4,0.2976,4.791405510132859,0.6343896659721784,1.3379754777158444,2.370908025950359,0.11452456030720226,2.2,5.416586839545044,0.8304730596022515,262.8259910998723,23693.997943605315,0.40470089730158576,56.092520077452384
15.95,0.3674,4.875772038002404,0.738866988430109,1.6063163614533498,2.363144882071709,0.1914276588761482,2.2,5.497269374296772,0.8342418389483099,262.4190743412556,23809.706309110494,0.40570970496852393,55.746777797257984
16.5,0.3329090909090909,5.680137439440616,0.7245121327821592,1.5757370861686903,2.9515903634511713,0.18371222116907082,2.2,6.683705051718073,0.8269371315492435,303.9476850322692,26568.229885511275,0.4031123023711214,51.6825564024916
17.05,0.31589999999999996,6.03916916859829,0.7594795006539614,1.6284018233627928,3.1720803850424764,0.20038928170811937,2.2,7.212318578683369,0.8010123333680167,332.21985823662146,28624.30679456107,0.37051892675448994,50.29370105586608
17.6,0.34480000000000005,5.977006924388176,0.7868990623070257,1.696849928165444,3.085300525384619,0.212329823054056,2.0,7.062138635115585,0.8786977355315357,327.7598660941909,28037.37049236014,0.4021586394825832,50.393027843731865
18.15,0.3351818181818182,5.627299945311846,0.7488317557862154,1.5580841189178078,2.9023136784436985,0.17957310603181642,2.4,6.148273666456125,0.8811256059421281,291.5999198177585,25387.076020080553,0.40177552356508445,53.56845475186961
18.7,0.32308333333333333,5.367604358299292,0.7109788735753085,1.4231452950092889,2.802608447747852,0.1470701989797131,2.6,5.826821501273337,0.8512141094372537,279.3472761083127,24590.23380299246,0.3832419572015518,54.97247792932639
19.25,0.33575,5.088395144123192,0.7619744725292388,1.4274125499820973,2.8609880816104956,0.1429899207988398,2.6,5.72160169641567,0.84230780869105,288.8911031587723,25233.41011608481,0.33818330364691673,56.168812297905326
19.8,0.26875,5.026011999009703,0.654625337423565,1.2034563865775114,2.7736139527576342,0.07649901316240572,2.4,6.0931716193688175,0.8353396373975315,295.1012727430345,25475.57490015579,0.32404158528535815,53.215069177842686
20.35,0.26284615384615384,4.869645803939842,0.626758661450092,1.1548605898755788,2.678003112963719,0.07209151164994448,2.8,5.845782335746914,0.8257027507107786,290.84482284634333,25280.519855345243,0.31411701945315745,54.74654312184879
20.9,0.2783076923076923,4.5774355624298355,0.5910737142739606,1.1537644790688693,2.3075857629733,0.07107303978958021,2.8,5.371976822743969,0.832631221998314,278.8736833579324,24508.168960206956,0.3317226532559744,56.0689453601078
21.45,0.32275000000000004,4.188421937885902,0.6355486443189895,1.3017544869367628,2.0245165047022877,0.08256552128241727,2.4,4.436962621532529,0.8730872847715209,239.4522446108226,21744.388360964225,0.3606208732430813,57.98053413902962
22.0,0.3071818181818182,4.313984037235975,0.6233494869750076,1.2942804629671678,2.066623689233993,0.07822411151024605,2.4,4.436962621532529,0.8730872847715209,239.4522446108226,21744.388360964225,0.3606208732430813,57.98053413902962
22.55,0.35463636363636364,4.273834750247121,0.6591197228385693,1.4142170089403885,2.0291283365643804,0.11383615579474746,2.4,4.301854592910794,0.8055005533518108,253.91757309788736,22282.533740198178,0.33471355889355586,66.19350995168101
23.1,0.3836,4.120028784639105,0.6268106251576212,1.433013139343684,1.8870027661359405,0.11533424166124404,2.2,4.449129133480157,0.7176364071616393,300.1089425397693,24749.767081739243,0.3069213503787016,150.4532076912709
23.65,0.38769999999999993,3.512239494616588,0.5217594742939471,1.3004508708490015,1.5235760025049845,0.10049877894213192,2.2,3.995883951051505,0.7465097121226616,281.17339597009743,23159.833670716707,0.32749244594979715,151.64065182246793
24.2,0.356,4.311558953036534,0.5167575611161621,1.2913410427015657,1.7820925203897147,0.09369294102019933,2.4,4.187044658645131,0.7487336863743734,273.67102591772823,22931.512993419467,0.3199650950013572,142.16426409387032
24.75,0.3540909090909091,4.496156548426069,0.6323385834706955,1.2998372906413846,2.404319307202355,0.08123848651792913,2.2,3.575811881088065,0.7261246178503808,255.63874454479034,21501.251641444378,0.29896732319794517,151.62986008766032
25.3,0.34459999999999996,5.57653977954553,0.721460880288371,1.3797122110947377,3.5222995178924124,0.08712670635873752,2.2,2.84250164397498,0.6976405247736747,215.2674629149874,18107.70509075845,0.39740014707127,160.63593650750292
25.85,0.29541666666666666,5.975308705041684,0.9217647895205707,1.3485822009792756,4.315688696155967,0.08338647611040867,2.6,2.6432446226020394,0.7400876056078709,194.32110901370046,16685.11830663385,0.4256677924911602,144.11469239722985
26.4,0.21485714285714289,6.228277818591138,0.8460853417197228,1.162214137534789,4.417870677103839,0.05038101404085275,3.0,2.7880889834312774,0.7594120139186339,197.352570968145,17202.28951465224,0.4246304367545484,133.4328503193843
26.95,0.21649999999999997,6.17422626540045,0.8223545244732505,1.1727352459409524,4.221024099448093,0.04965504635473017,3.4,3.827483189676099,0.7876162874759053,208.4161573333921,17993.651468143118,0.4261928776317223,123.24378106907616
27.5,0.20170588235294118,6.369505347717052,0.8089523643983229,1.1812826860953738,4.133677894332328,0.04828986805303175,3.6,5.002316461348687,0.8310702788091595,222.3852538260599,19198.4698465616,0.43432932895822246,112.7342140215048
28.05,0.1983333333333333,6.4437026628424015,0.795159726760952,1.1800768859344801,4.104600957301092,0.04641849226571221,3.77992440151197,5.056546745408439,0.8855585658277643,202.05490650007454,18251.583678294337,0.45634396896696283,61.40611135138673
28.6,0.18433333333333335,6.6360447651773615,0.8114284416035836,1.1635361393366965,4.3760258138013395,0.04648739727201265,3.94650295987722,5.973543921168603,0.8918583296065182,221.6274374271757,19717.155462346105,0.45067591289297165,59.50291531706811
29.15,0.1956470588235294,6.382256992622403,0.8929408394824095,1.2072013494319829,4.484664984299152,0.05303116768064405,3.94650295987722,5.5946514370504605,0.8798123038558728,202.85217802927963,17558.19858663104,0.4688523968543342,61.74023640622371
29.7,0.1947222222222222,6.134406622749127,0.8262612248207841,1.1366114238364091,4.2684781618036896,0.04767333166068062,3.94650295987722,5.742476791402318,0.9068334395520353,211.2856518508769,18345.521870116438,0.4461204241072877,58.65559933458988
30.25,0.1885,5.557178624865526,0.6627324968320772,1.0152812530046764,3.463770524072922,0.03755964996333662,4.165753124314843,5.648967093542906,0.9110576447385363,211.96679551569014,18563.50252238544,0.43884697993721905,58.49059268957352
30.8,0.2103125,5.204607980209751,0.5991076875368593,1.0196324939472028,2.941681376020491,0.035353424523384774,3.7272527954395964,5.917630305491763,0.8454682690129354,237.50429652370025,20025.540253357914,0.40153540891453465,196.28092562601483
31.35,0.2308125,4.896529934371691,0.5916359973778338,1.019311334407734,2.821466309487958,0.037499775048109404,3.28875246656435,6.419921460622726,0.829412843091046,246.5943640994878,20297.394815877655,0.38140639555887834,213.16991070768935
31.9,0.2264375,4.950498207386504,0.5859635061864796,1.007782028998741,2.7974398583281057,0.04270887908179566,3.508002631001973,5.718471100987923,0.8137051298921041,242.07870632443505,19937.64114328912,0.36778106504886354,203.92582967499015
32.45,0.22675,5.135320413846353,0.5921379944835028,1.0363026577900005,2.8167204217710538,0.04674834580670889,3.508002631001973,4.896746000970818,0.8282334264382187,233.25863845546013,19604.313710669718,0.38964699831772237,204.9520784822531
33.0,0.22723529411764704,4.96004045855186,0.5605369210865346,1.0234318162916343,2.632278376236662,0.0464824786374335,3.5797009896820384,4.925012693162605,0.8383831438028532,233.78217926986048,19642.51714818869,0.38450937180904754,194.5056268550186
33.55,0.23931249999999998,4.660991596628806,0.45524732861646433,0.9843404471017199,2.1145106079477096,0.04348974872584626,3.4,4.402601952892587,0.842777906141071,225.0138914595797,19238.190594308868,0.3849722548224872,193.3746224147241
34.1,0.23456249999999998,4.924248573754024,0.4238803230757523,0.9827807935537898,1.9578356972719049,0.04205728844459078,3.3146882121400454,4.37593343350664,0.8112716974052583,268.19796485076654,22587.772826005497,0.3617828130214311,218.76771687581052
34.65,0.22062500000000002,4.974140179702499,0.38705141603656423,0.9461076892287945,1.9704330386591673,0.03923096236878149,3.242542153047989,4.557420165812749,0.8156700727675402,278.6932116318881,23160.875800805235,0.3615471624475976,227.2079939018875
35.2,0.20426666666666668,5.123211556784395,0.37133956134277046,0.9248383287479277,1.9410641213504318,0.03749875298790266,3.0331311245916943,4.938305583520525,0.7889648647820149,303.2916611323425,24942.018711919125,0.34220121424394734,252.69444053743916
35.75,0.1821875,4.8815539881980445,0.32566131698035156,0.8163736428638166,1.8548013740345917,0.02880376319347356,3.26644890340644,5.185928518076449,0.8411431015626109,292.4089875556404,24646.418030749217,0.3401015253597427,72.93326251793937
36.3,0.18525000000000003,4.768453105753428,0.3147429999628429,0.8137661544841095,1.7091358425721825,0.028266506652520722,3.4997666822211855,4.808724462128331,0.8297691224920493,276.458075682877,23825.723792039364,0.3410790891968427,72.53419625493953
36.85,0.19392857142857145,4.494229444093201,0.2316487303191991,0.770980738156657,1.41547250822881,0.01704163861831265,3.0331311245916943,4.379221292163273,0.7656053839391409,321.80187427978024,25579.3219754895,0.32199325219041225,90.30074090353227
37.4,0.2276923076923077,3.7437100252978244,0.2693887857390603,0.7374387161074035,1.4327472895992073,0.02090394961576355,2.7998133457769483,4.107373546907071,0.7402618348209792,311.52975687336595,24537.400343032336,0.2821172689975258,92.6319614460527
37.95,0.22176923076923077,3.7262470134826087,0.24875609852187602,0.7155825579059903,1.343627213530848,0.020409652268122143,2.7998133457769483,3.811716927481996,0.7223076580801403,300.9077603395238,23886.891920089925,0.2700087259348278,95.2636656609726
38.5,0.27133333333333337,3.194093968154466,0.2663481643306825,0.8279234494928334,1.2004969495435058,0.029515443223695554,2.333177788147457,3.425750649578604,0.6670194114040797,315.5112230918959,24304.272260763788,0.2492594042654633,106.39754806584615
39.05,0.28863636363636364,3.0944442086833317,0.2732376000972721,0.8719874625570037,1.0930826143904186,0.03174292500742947,2.2680880018144705,3.9499510854199578,0.7529100098106276,268.6949168988006,21492.99074546898,0.2672949319561634,75.35741680736501
39.6,0.34254545454545454,3.445300823767711,0.6664645617363738,1.236025649023776,1.7491304253255173,0.09267807854892847,2.1570319240724762,3.859115910022198,0.7289000375990873,266.8040983436274,21466.934923577763,0.314034062390946,76.85654009593777
40.15,0.33816666666666667,3.5864991487254883,0.7213809797500247,1.260790461099918,2.0334550116630834,0.09489740732349972,2.4,3.9078532252532994,0.7618460086958323,260.43449693591316,21511.20932147911,0.31719739341433667,73.32463792027276
40.7,0.3376666666666666,4.140608849529934,0.8372008278557228,1.3630782554496108,2.661618994291502,0.09970642454822602,2.4,3.668414773780007,0.7691485417380745,253.12986840279055,20792.500099850102,0.34356972733619945,75.66066689044861
41.25,0.33009090909090916,4.468787046091595,0.9214163962983508,1.4168326563077531,3.0696135305517998,0.10848978299383581,2.4,3.550742025448189,0.7896857619808277,247.58535785411345,20421.484019929212,0.3537738089688525,76.4186009704385
41.8,0.3190833333333334,4.7124838678646555,1.0482909386127355,1.4784360802221295,3.372388026822042,0.10953914383859452,2.6,4.314438133816602,0.862697598135103,215.41405339056948,19771.33767709974,0.3731329006329195,57.629905033384865
42.35,0.32116666666666666,5.482210286992104,1.0786588934272525,1.5812188134851686,3.5981934369356634,0.11336648042585473,2.6,3.904981917336745,0.8702957314847269,202.2937825234606,18853.941881631217,0.39022691772693663,59.93388997867972
42.9,0.3139166666666667,5.528546176308531,1.1799482196830413,1.577316276821947,3.7878311522843724,0.11364806791328012,2.4,4.8449268756358235,0.8661254229066526,235.85792883138683,21392.248485348264,0.37892135088695106,57.03616881761954
43.45,0.29471428571428576,5.408574531802414,1.0750017571928026,1.4682966546577805,3.5786353902974097,0.10099690697397887,2.8,5.386725999499239,0.861598024558836,242.4632094938561,21005.45314628466,0.3875246917376874,55.879342283565414
44.0,0.2750714285714286,5.192587798232767,0.879029253194621,1.2803736856023609,3.312762250072019,0.06229655081543363,3.0,6.582631756898443,0.8692561074777728,274.06647193382935,23535.091792224128,0.38948823756051465,53.957976741241666
44.55,0.259625,5.057745646961887,0.7365554733687778,1.1853199960325962,2.898482934006715,0.05680055176554677,3.2,6.929035557476242,0.8968403125970232,281.1894358780174,24036.597441218946,0.3648719715206137,53.00241706702769
45.1,0.2555625,5.176450691336866,0.680247856533734,1.1683514109055908,2.8360007159935923,0.051337811361033714,3.4,7.023179301678591,0.8899134191637091,279.6865540991549,23980.612226727742,0.3769500748076681,54.54522123687821
